# freq[s]  -  target PSD [m2/s3]
0.000000000000000000e+00 4.908408794288222389e-03
2.259376412110257470e-02 5.991182775750395623e-03
4.518752824220514941e-02 1.040365259653337413e-02
6.778129236330772411e-02 1.834520269481995994e-02
9.037505648441029882e-02 2.683913394528033430e-02
1.129688206055128735e-01 3.474865296759529348e-02
1.355625847266154482e-01 4.365651586109743632e-02
1.581563488477180368e-01 5.339425592867524939e-02
1.807501129688205976e-01 6.304702682451521212e-02
2.033438770899231862e-01 7.199263777830711142e-02
2.259376412110257470e-01 8.090161958979230628e-02
2.485314053321283356e-01 8.977231781162983704e-02
2.711251694532308965e-01 9.899494388770563313e-02
2.937189335743334850e-01 1.086932907589137215e-01
3.163126976954360736e-01 1.183195194026027408e-01
3.389064618165386622e-01 1.224395008983253513e-01
3.615002259376411953e-01 1.328226935190390257e-01
3.840939900587437839e-01 1.391371436442769283e-01
4.066877541798463724e-01 1.444767006986807656e-01
4.292815183009489610e-01 1.484489368450636615e-01
4.518752824220514941e-01 1.506332282494579899e-01
4.744690465431540827e-01 1.535373053364580964e-01
4.970628106642566713e-01 1.565395829994350174e-01
5.196565747853592043e-01 1.602707609474925965e-01
5.422503389064617929e-01 1.651816959710210309e-01
5.648441030275643815e-01 1.752961748766987959e-01
5.874378671486669701e-01 1.787955941205064403e-01
6.100316312697695587e-01 1.841555068680543750e-01
6.326253953908721472e-01 1.896580349520778086e-01
6.552191595119747358e-01 1.953467257084660902e-01
6.778129236330773244e-01 1.974471597898711517e-01
7.004066877541798020e-01 2.043780307948328545e-01
7.230004518752823905e-01 2.094238441640589032e-01
7.455942159963849791e-01 2.142538071076536543e-01
7.681879801174875677e-01 2.184361021753737087e-01
7.907817442385901563e-01 2.222339557545940925e-01
8.133755083596927449e-01 2.231656161601443533e-01
8.359692724807953335e-01 2.257009650744012108e-01
8.585630366018979220e-01 2.280973294845584642e-01
8.811568007230003996e-01 2.303896993945765970e-01
9.037505648441029882e-01 2.322019579456667260e-01
9.263443289652055768e-01 2.341059993221733804e-01
9.489380930863081653e-01 2.358619718396869347e-01
9.715318572074107539e-01 2.374975834919210993e-01
9.941256213285133425e-01 2.391333860250226262e-01
1.016719385449615931e+00 2.395399429317030260e-01
1.039313149570718409e+00 2.401405565486004201e-01
1.061906913691821108e+00 2.405162350480548605e-01
1.084500677812923586e+00 2.408463853909398600e-01
1.107094441934026285e+00 2.411248155474615962e-01
1.129688206055128763e+00 2.413118584423775415e-01
1.152281970176231463e+00 2.416412906622226187e-01
1.174875734297333940e+00 2.428274339084356415e-01
1.197469498418436418e+00 2.443014270901959495e-01
1.220063262539539117e+00 2.457550259340869903e-01
1.242657026660641595e+00 2.480072675281239925e-01
1.265250790781744294e+00 2.487275186824360329e-01
1.287844554902846772e+00 2.493443091361838282e-01
1.310438319023949472e+00 2.502107107095072336e-01
1.333032083145051949e+00 2.514171804887176398e-01
1.355625847266154649e+00 2.522380020222761421e-01
1.378219611387257126e+00 2.532093701918899376e-01
1.400813375508359604e+00 2.539066574574057600e-01
1.423407139629462304e+00 2.548388731326698409e-01
1.446000903750564781e+00 2.556810551099858997e-01
1.468594667871667481e+00 2.559021558074531244e-01
1.491188431992769958e+00 2.567749565595745520e-01
1.513782196113872658e+00 2.577776005954560690e-01
1.536375960234975135e+00 2.588622235260137905e-01
1.558969724356077613e+00 2.598053321397219562e-01
1.581563488477180313e+00 2.600323142167865198e-01
1.604157252598282790e+00 2.595928484474132047e-01
1.626751016719385490e+00 2.599373835798416965e-01
1.649344780840487967e+00 2.600624424148864078e-01
1.671938544961590667e+00 2.600371170233949925e-01
1.694532309082693144e+00 2.591139453588391373e-01
1.717126073203795844e+00 2.585669389974256660e-01
1.739719837324898322e+00 2.585072082888084655e-01
1.762313601446000799e+00 2.580991499159520641e-01
1.784907365567103499e+00 2.572535576569784932e-01
1.807501129688205976e+00 2.557167721949797912e-01
1.830094893809308676e+00 2.547509851137691461e-01
1.852688657930411154e+00 2.536386166057739699e-01
1.875282422051513853e+00 2.524809738280581750e-01
1.897876186172616331e+00 2.514790181378203093e-01
1.920469950293719030e+00 2.502271210259203738e-01
1.943063714414821508e+00 2.491554915437262929e-01
1.965657478535923985e+00 2.480283521832667981e-01
1.988251242657026685e+00 2.468936576631474977e-01
2.010845006778129385e+00 2.457881791577252728e-01
2.033438770899231862e+00 2.444193416320823431e-01
2.056032535020334340e+00 2.432591234381903389e-01
2.078626299141436817e+00 2.423376149133662782e-01
2.101220063262539739e+00 2.412616385403520969e-01
2.123813827383642217e+00 2.399067407777459859e-01
2.146407591504744694e+00 2.381202428554069772e-01
2.169001355625847172e+00 2.376646031063514020e-01
2.191595119746949649e+00 2.365250213333064955e-01
2.214188883868052571e+00 2.353502804204821441e-01
2.236782647989155048e+00 2.339209749598306909e-01
2.259376412110257526e+00 2.314977719655425814e-01
2.281970176231360004e+00 2.307977033062546812e-01
2.304563940352462925e+00 2.292387296926370610e-01
2.327157704473565403e+00 2.279232863067427728e-01
2.349751468594667880e+00 2.266908124772307465e-01
2.372345232715770358e+00 2.259189091685376016e-01
2.394938996836872835e+00 2.237322661897409026e-01
2.417532760957975757e+00 2.223938915092023016e-01
2.440126525079078235e+00 2.210785574917197294e-01
2.462720289200180712e+00 2.198116405733273326e-01
2.485314053321283190e+00 2.178824201483760825e-01
2.507907817442386111e+00 2.172087392349595636e-01
2.530501581563488589e+00 2.161462932447131002e-01
2.553095345684591067e+00 2.150104158200920879e-01
2.575689109805693544e+00 2.137235287888303581e-01
2.598282873926796022e+00 2.124845978386009082e-01
2.620876638047898943e+00 2.112796133708907953e-01
2.643470402169001421e+00 2.101529182866492540e-01
2.666064166290103898e+00 2.091375465092374653e-01
2.688657930411206376e+00 2.081443143271784757e-01
2.711251694532309298e+00 2.075943198719820137e-01
2.733845458653411775e+00 2.060346163957918197e-01
2.756439222774514253e+00 2.049983621662335165e-01
2.779032986895616730e+00 2.040132943070227522e-01
2.801626751016719208e+00 2.030654025921677930e-01
2.824220515137822130e+00 2.026948282269194213e-01
2.846814279258924607e+00 2.013906472972022965e-01
2.869408043380027085e+00 2.003133321060649452e-01
2.892001807501129562e+00 1.991591969275523788e-01
2.914595571622232484e+00 1.979615175167131480e-01
2.937189335743334961e+00 1.972800080347001661e-01
2.959783099864437439e+00 1.953769055793427023e-01
2.982376863985539917e+00 1.940254228643906176e-01
3.004970628106642394e+00 1.926232497399440191e-01
3.027564392227745316e+00 1.912668092526524921e-01
3.050158156348847793e+00 1.897640873156780372e-01
3.072751920469950271e+00 1.886401929775902431e-01
3.095345684591052748e+00 1.874475833732561214e-01
3.117939448712155226e+00 1.860327376694229373e-01
3.140533212833258148e+00 1.845049408250884204e-01
3.163126976954360625e+00 1.823677003933866780e-01
3.185720741075463103e+00 1.817922202732053238e-01
3.208314505196565580e+00 1.805460434049383500e-01
3.230908269317668502e+00 1.792059333284016232e-01
3.253502033438770980e+00 1.778648083204845687e-01
3.276095797559873457e+00 1.760504658198352446e-01
3.298689561680975935e+00 1.754634094346754214e-01
3.321283325802078412e+00 1.741842968892045040e-01
3.343877089923181334e+00 1.729331485933187085e-01
3.366470854044283811e+00 1.717525834278395558e-01
3.389064618165386289e+00 1.700222598288458342e-01
3.411658382286488767e+00 1.693925323839429453e-01
3.434252146407591688e+00 1.681938337183687127e-01
3.456845910528694166e+00 1.669562679162400476e-01
3.479439674649796643e+00 1.657363400366155259e-01
3.502033438770899121e+00 1.640114903990444739e-01
3.524627202892001598e+00 1.634224579156038915e-01
3.547220967013104520e+00 1.623268677962975970e-01
3.569814731134206998e+00 1.612652714304784740e-01
3.592408495255309475e+00 1.601749185744041071e-01
3.615002259376411953e+00 1.588280054320043155e-01
3.637596023497514874e+00 1.576835058225814767e-01
3.660189787618617352e+00 1.565337305845253546e-01
3.682783551739719829e+00 1.553851988403782136e-01
3.705377315860822307e+00 1.542532951110880679e-01
3.727971079981924785e+00 1.536350917857600418e-01
3.750564844103027706e+00 1.518815088103010191e-01
3.773158608224130184e+00 1.506917710187379023e-01
3.795752372345232661e+00 1.494997219053939841e-01
3.818346136466335139e+00 1.482999140652720427e-01
3.840939900587438061e+00 1.468750382544533328e-01
3.863533664708540538e+00 1.456376031291708728e-01
3.886127428829643016e+00 1.444636832451430541e-01
3.908721192950745493e+00 1.432636771327162328e-01
3.931314957071847971e+00 1.419588933767382266e-01
3.953908721192950892e+00 1.407006146690955029e-01
3.976502485314053370e+00 1.393951260102937739e-01
3.999096249435155848e+00 1.381305710239917051e-01
4.021690013556258769e+00 1.369112161699926056e-01
4.044283777677360803e+00 1.357025791340291943e-01
4.066877541798463724e+00 1.345804195996100350e-01
4.089471305919565758e+00 1.334070509198130028e-01
4.112065070040668679e+00 1.322024401124965443e-01
4.134658834161771601e+00 1.309387334023580374e-01
4.157252598282873635e+00 1.296427787547781985e-01
4.179846362403976556e+00 1.278756665036311913e-01
4.202440126525079478e+00 1.274070209703720979e-01
4.225033890646181511e+00 1.261666649540570950e-01
4.247627654767284433e+00 1.248960910916567524e-01
4.270221418888386467e+00 1.236350107708894391e-01
4.292815183009489388e+00 1.219852951735043434e-01
4.315408947130592310e+00 1.215212167522127379e-01
4.338002711251694343e+00 1.204292370871314216e-01
4.360596475372797265e+00 1.193926894778229580e-01
4.383190239493899298e+00 1.183929748251774522e-01
4.405784003615002220e+00 1.170026529029539880e-01
4.428377767736105142e+00 1.166067203746235931e-01
4.450971531857207175e+00 1.156517606473280446e-01
4.473565295978310097e+00 1.147201933687887893e-01
4.496159060099412130e+00 1.138280378537923493e-01
4.518752824220515052e+00 1.126687142067449715e-01
4.541346588341617974e+00 1.123564122648171709e-01
4.563940352462720007e+00 1.115840548355895995e-01
4.586534116583822929e+00 1.107539463780985028e-01
4.609127880704925850e+00 1.098756454197147014e-01
4.631721644826027884e+00 1.092793902044256471e-01
4.654315408947130805e+00 1.084170163405778209e-01
4.676909173068232839e+00 1.076329973279020608e-01
4.699502937189335761e+00 1.069323018424100519e-01
4.722096701310438682e+00 1.062189160455961762e-01
4.744690465431540716e+00 1.058903689463714520e-01
4.767284229552643637e+00 1.047866640504246522e-01
4.789877993673745671e+00 1.039300399765230587e-01
4.812471757794848592e+00 1.030425196023993795e-01
4.835065521915951514e+00 1.021776071739989855e-01
4.857659286037053548e+00 1.015183670189212656e-01
4.880253050158156469e+00 1.007166045057260456e-01
4.902846814279258503e+00 9.988294939786811211e-02
4.925440578400361424e+00 9.903551736596913346e-02
4.948034342521464346e+00 9.820341883483479917e-02
4.970628106642566379e+00 9.705446850359450428e-02
4.993221870763669301e+00 9.671554577899264815e-02
5.015815634884772223e+00 9.589090679527766115e-02
5.038409399005874256e+00 9.505282910120883832e-02
5.061003163126977178e+00 9.422968994560426692e-02
5.083596927248079211e+00 9.389054343607529385e-02
5.106190691369182133e+00 9.274661593125055337e-02
5.128784455490285055e+00 9.197981780031908028e-02
5.151378219611387088e+00 9.124103654065120195e-02
5.173971983732490010e+00 9.049259601161377398e-02
5.196565747853592043e+00 8.983677054033792353e-02
5.219159511974694965e+00 8.909356114811609051e-02
5.241753276095797887e+00 8.835427524402765520e-02
5.264347040216899920e+00 8.761784568636701853e-02
5.286940804338002842e+00 8.688860739598039395e-02
5.309534568459104875e+00 8.658742862978244248e-02
5.332128332580207797e+00 8.556915734370817983e-02
5.354722096701310718e+00 8.485247082306716926e-02
5.377315860822412752e+00 8.415818041712330722e-02
5.399909624943515674e+00 8.350617851524395896e-02
5.422503389064618595e+00 8.321913925447511906e-02
5.445097153185720629e+00 8.227042042756457785e-02
5.467690917306823550e+00 8.160293215998976057e-02
5.490284681427925584e+00 8.094864615793408158e-02
5.512878445549028505e+00 8.031940655742562940e-02
5.535472209670131427e+00 7.970494984781933967e-02
5.558065973791233461e+00 7.905718793661195565e-02
5.580659737912336382e+00 7.839308474276697469e-02
5.603253502033438416e+00 7.772682465971490762e-02
5.625847266154541337e+00 7.708043465701852615e-02
5.648441030275644259e+00 7.676591030962294504e-02
5.671034794396746292e+00 7.584818221690270423e-02
5.693628558517849214e+00 7.522153957680279002e-02
5.716222322638951248e+00 7.460497084664247103e-02
5.738816086760054169e+00 7.403714886962407815e-02
5.761409850881157091e+00 7.343569053907651745e-02
5.784003615002259124e+00 7.289455891814164423e-02
5.806597379123362046e+00 7.232999063556601327e-02
5.829191143244464968e+00 7.172306537767002277e-02
5.851784907365567001e+00 7.111079577455192702e-02
5.874378671486669923e+00 7.081356155009652098e-02
5.896972435607771956e+00 6.994066413599105136e-02
5.919566199728874878e+00 6.937657090971915963e-02
5.942159963849977800e+00 6.880973529988446136e-02
5.964753727971079833e+00 6.823035187332424090e-02
5.987347492092182755e+00 6.793785134620065891e-02
6.009941256213284788e+00 6.705806970709700388e-02
6.032535020334387710e+00 6.648854604186654749e-02
6.055128784455490631e+00 6.593824640767868839e-02
6.077722548576592665e+00 6.539928476366771437e-02
6.100316312697695587e+00 6.487145243071128220e-02
6.122910076818797620e+00 6.432410759767251407e-02
6.145503840939900542e+00 6.375968160078276936e-02
6.168097605061003463e+00 6.320117143565610884e-02
6.190691369182105497e+00 6.266682917637994565e-02
6.213285133303208418e+00 6.189059496299518376e-02
6.235878897424310452e+00 6.163835883862198162e-02
6.258472661545413374e+00 6.112142783274294305e-02
6.281066425666516295e+00 6.058587350386190895e-02
6.303660189787618329e+00 6.004331102521454772e-02
6.326253953908721250e+00 5.927815104972775778e-02
6.348847718029824172e+00 5.904806557918705623e-02
6.371441482150926205e+00 5.854325183368608299e-02
6.394035246272029127e+00 5.804468641538099855e-02
6.416629010393131161e+00 5.755041911076426431e-02
6.439222774514234082e+00 5.683642428364410470e-02
6.461816538635337004e+00 5.661134924043326883e-02
6.484410302756439037e+00 5.613133346941048124e-02
6.507004066877541959e+00 5.567115239720332037e-02
6.529597830998643992e+00 5.521875322272912223e-02
6.552191595119746914e+00 5.454730035086848700e-02
6.574785359240849836e+00 5.434836285663347671e-02
6.597379123361951869e+00 5.388149981316975312e-02
6.619972887483054791e+00 5.341523792144489691e-02
6.642566651604156824e+00 5.293971299408451597e-02
6.665160415725259746e+00 5.253839515286440331e-02
6.687754179846362668e+00 5.204837956311175740e-02
6.710347943967464701e+00 5.154884149572166313e-02
6.732941708088567623e+00 5.106051504991052092e-02
6.755535472209670544e+00 5.058587229782190997e-02
6.778129236330772578e+00 4.991925995180599568e-02
6.800723000451875500e+00 4.973132681244214759e-02
6.823316764572977533e+00 4.923396549640036979e-02
6.845910528694080455e+00 4.875086550125044826e-02
6.868504292815183376e+00 4.828118422999835846e-02
6.891098056936285410e+00 4.810215564056961879e-02
6.913691821057388331e+00 4.744313051222728145e-02
6.936285585178490365e+00 4.695774938260321302e-02
6.958879349299593287e+00 4.648035493415403341e-02
6.981473113420696208e+00 4.601795796653083276e-02
7.004066877541798242e+00 4.539055148168667786e-02
7.026660641662901163e+00 4.522315631211026865e-02
7.049254405784003197e+00 4.475813333695954216e-02
7.071848169905106118e+00 4.430255214443759582e-02
7.094441934026209040e+00 4.386168705659444778e-02
7.117035698147311074e+00 4.354553204467946637e-02
7.139629462268413995e+00 4.311305525702168601e-02
7.162223226389516917e+00 4.267240110746167714e-02
7.184816990510618950e+00 4.224424249926981428e-02
7.207410754631721872e+00 4.184278577101331609e-02
7.230004518752823905e+00 4.152673008433273999e-02
7.252598282873926827e+00 4.114201391094336052e-02
7.275192046995029749e+00 4.074859768191552156e-02
7.297785811116131782e+00 4.034138494519907969e-02
7.320379575237234704e+00 3.993288439604788381e-02
7.342973339358336737e+00 3.939552755023190134e-02
7.365567103479439659e+00 3.925851371777853288e-02
7.388160867600542581e+00 3.888012965740977878e-02
7.410754631721644614e+00 3.851157273458329783e-02
7.433348395842747536e+00 3.814861259850117065e-02
7.455942159963849569e+00 3.801658028621188179e-02
7.478535924084952491e+00 3.753188494516531554e-02
7.501129688206055413e+00 3.718388110598851853e-02
7.523723452327157446e+00 3.685500986934444473e-02
7.546317216448260368e+00 3.653994947404570065e-02
7.568910980569363289e+00 3.610034568299110708e-02
7.591504744690465323e+00 3.598073217149364011e-02
7.614098508811568244e+00 3.565971826940850242e-02
7.636692272932670278e+00 3.534841482988428790e-02
7.659286037053773200e+00 3.504343963138824986e-02
7.681879801174876121e+00 3.482055591277912615e-02
7.704473565295978155e+00 3.451393689469755416e-02
7.727067329417081076e+00 3.420107212657903795e-02
7.749661093538183110e+00 3.389124503537362110e-02
7.772254857659286031e+00 3.358959695539197321e-02
7.794848621780388953e+00 3.337313573843037756e-02
7.817442385901490987e+00 3.307323629554956290e-02
7.840036150022593908e+00 3.276207425518616601e-02
7.862629914143695942e+00 3.244686545744168010e-02
7.885223678264798863e+00 3.213950941491896390e-02
7.907817442385901785e+00 3.193645659464676434e-02
7.930411206507003818e+00 3.164364665969078561e-02
7.953004970628106740e+00 3.135188486071834035e-02
7.975598734749209662e+00 3.106026933270116669e-02
7.998192498870311695e+00 3.077540537368656653e-02
8.020786262991414617e+00 3.040420382167744948e-02
8.043380027112517539e+00 3.030424275366959755e-02
8.065973791233618684e+00 3.003017806430583608e-02
8.088567555354721605e+00 2.974999280142951938e-02
8.111161319475824527e+00 2.946799652403944356e-02
8.133755083596927449e+00 2.927769074953761458e-02
8.156348847718030370e+00 2.900481539987739485e-02
8.178942611839131516e+00 2.874836792858778342e-02
8.201536375960234437e+00 2.850163844672314734e-02
8.224130140081337359e+00 2.825078718011787490e-02
8.246723904202440281e+00 2.790115192103106642e-02
8.269317668323543202e+00 2.780975637309484119e-02
8.291911432444646124e+00 2.756434625333983174e-02
8.314505196565747269e+00 2.733000113049655413e-02
8.337098960686850191e+00 2.710035964343154163e-02
8.359692724807953113e+00 2.678107014861945759e-02
8.382286488929056034e+00 2.669135164669761417e-02
8.404880253050158956e+00 2.646779483492841742e-02
8.427474017171260101e+00 2.625261167989673128e-02
8.450067781292363023e+00 2.603922648636341694e-02
8.472661545413465944e+00 2.574258050201554127e-02
8.495255309534568866e+00 2.566217683720327727e-02
8.517849073655671788e+00 2.544726344018715183e-02
8.540442837776772933e+00 2.523991561444341794e-02
8.563036601897875855e+00 2.503810181375400179e-02
8.585630366018978776e+00 2.475526823348204661e-02
8.608224130140081698e+00 2.467435467660511125e-02
8.630817894261184620e+00 2.446991989377686472e-02
8.653411658382285765e+00 2.426956506550370304e-02
8.676005422503388687e+00 2.407550875237168125e-02
8.698599186624491608e+00 2.392409591291897591e-02
8.721192950745594530e+00 2.374200635501141562e-02
8.743786714866697451e+00 2.356127545206479143e-02
8.766380478987798597e+00 2.337875845296683713e-02
8.788974243108901518e+00 2.319482199277279541e-02
8.811568007230004440e+00 2.294360273892579599e-02
